FX77-W-500 airfoil from 3.35 MW TUM Reference Onshore Turbine datasheet, version 4.0
File prepared by Evan Gaertner
line
  1        Number of airfoil tables in this file
  3.00     Reynolds numbers in millions
  0.0      Control setting
 10.5000   Stall angle (deg)
 -2.9006   Zero Cn angle of attack
  6.6331   Cn slope for zero lift (dimensionless)
  1.2384   Cn extrapolated to value at positive stall angle of attack
 -0.4868   Cn at stall value for negative angle of attack
 -3.0000   Angle of attack for minimum CD (deg)
  0.0833   Minimum CD value
-1.8000e+02   0.0000e+00   1.5460e-01   0.0000e+00
-1.7500e+02   2.2000e-01   1.7285e-01   2.0000e-01
-1.7000e+02   4.4000e-01   1.9110e-01   4.0000e-01
-1.6500e+02   5.4655e-01   2.4365e-01   3.5840e-01
-1.6000e+02   6.5310e-01   2.9620e-01   3.1680e-01
-1.5500e+02   6.2745e-01   3.7630e-01   3.0045e-01
-1.5000e+02   6.0180e-01   4.5640e-01   2.8410e-01
-1.4500e+02   5.8740e-01   5.5390e-01   2.8905e-01
-1.4000e+02   5.7300e-01   6.5140e-01   2.9400e-01
-1.3500e+02   5.4675e-01   7.5390e-01   3.0470e-01
-1.3000e+02   5.2050e-01   8.5640e-01   3.1540e-01
-1.2500e+02   4.7605e-01   9.5060e-01   3.2595e-01
-1.2000e+02   4.3160e-01   1.0448e+00   3.3650e-01
-1.1500e+02   3.6965e-01   1.1184e+00   3.4335e-01
-1.1000e+02   3.0770e-01   1.1920e+00   3.5020e-01
-1.0500e+02   2.3320e-01   1.2349e+00   3.5100e-01
-1.0000e+02   1.5870e-01   1.2779e+00   3.5180e-01
-9.5000e+01   7.9350e-02   1.2839e+00   3.4530e-01
-9.0000e+01   0.0000e+00   1.2900e+00   3.3880e-01
-8.5000e+01  -7.9350e-02   1.2839e+00   3.3125e-01
-8.0000e+01  -1.5870e-01   1.2779e+00   3.2370e-01
-7.5000e+01  -2.3320e-01   1.2349e+00   3.0935e-01
-7.0000e+01  -3.0770e-01   1.1920e+00   2.9500e-01
-6.5000e+01  -3.6965e-01   1.1184e+00   2.7565e-01
-6.0000e+01  -4.3160e-01   1.0448e+00   2.5630e-01
-5.5000e+01  -4.7605e-01   9.5060e-01   2.3435e-01
-5.0000e+01  -5.2050e-01   8.5640e-01   2.1240e-01
-4.5000e+01  -5.4675e-01   7.5390e-01   1.8985e-01
-4.0000e+01  -5.7300e-01   6.5140e-01   1.6730e-01
-3.8000e+01  -5.7876e-01   6.1240e-01   1.5848e-01
-3.6000e+01  -5.8452e-01   5.7340e-01   1.4966e-01
-3.4000e+01  -5.9028e-01   5.3440e-01   1.4084e-01
-3.2000e+01  -5.9604e-01   4.9540e-01   1.3202e-01
-3.0000e+01  -6.0180e-01   4.5640e-01   1.2320e-01
-2.8000e+01  -6.1206e-01   4.2436e-01   1.1322e-01
-2.6000e+01  -6.2232e-01   3.9232e-01   1.0324e-01
-2.4000e+01  -6.3258e-01   3.6028e-01   9.3260e-02
-2.2000e+01  -6.4284e-01   3.2824e-01   8.3280e-02
-2.0000e+01  -6.5310e-01   2.9620e-01   7.3300e-02
-1.9000e+01  -6.2655e-01   2.8357e-01   6.3420e-02
-1.8000e+01  -6.0000e-01   2.7094e-01   5.3540e-02
-1.7000e+01  -5.7345e-01   2.5831e-01   4.3660e-02
-1.6000e+01  -5.4690e-01   2.4568e-01   3.3780e-02
-1.5000e+01  -5.2035e-01   2.3305e-01   2.3900e-02
-1.4000e+01  -4.9380e-01   2.2042e-01   1.4020e-02
-1.3500e+01  -4.8052e-01   2.1410e-01   9.0800e-03
-1.3000e+01  -4.6725e-01   2.0779e-01   4.1400e-03
-1.2500e+01  -4.5398e-01   2.0147e-01  -8.0000e-04
-1.2000e+01  -4.4070e-01   1.9516e-01  -5.7400e-03
-1.1500e+01  -4.2742e-01   1.8885e-01  -1.0680e-02
-1.1000e+01  -4.1415e-01   1.8253e-01  -1.5620e-02
-1.0500e+01  -4.0087e-01   1.7622e-01  -2.0560e-02
-1.0000e+01  -3.8760e-01   1.6990e-01  -2.5500e-02
-9.5000e+00  -3.6131e-01   1.6352e-01  -2.4743e-02
-9.0000e+00  -3.3501e-01   1.5714e-01  -2.3985e-02
-8.5000e+00  -3.0872e-01   1.5075e-01  -2.3228e-02
-8.0000e+00  -2.8242e-01   1.4437e-01  -2.2471e-02
-7.5000e+00  -2.5613e-01   1.3799e-01  -2.1713e-02
-7.0000e+00  -2.2984e-01   1.3161e-01  -2.0956e-02
-6.5000e+00  -2.0354e-01   1.2522e-01  -2.0199e-02
-6.0000e+00  -1.7725e-01   1.1884e-01  -1.9441e-02
-5.5000e+00  -1.5095e-01   1.1246e-01  -1.8684e-02
-5.0000e+00  -1.2466e-01   1.0608e-01  -1.7926e-02
-4.5000e+00  -9.8365e-02   9.9694e-02  -1.7169e-02
-4.0000e+00  -7.2071e-02   9.3312e-02  -1.6412e-02
-3.5000e+00  -4.5776e-02   8.6929e-02  -1.5654e-02
-3.0000e+00  -7.1429e-03   8.3296e-02  -1.6020e-02
-2.5000e+00   5.0000e-02   8.3786e-02  -1.8071e-02
-2.0000e+00   1.0714e-01   8.4276e-02  -2.0122e-02
-1.5000e+00   1.6429e-01   8.4765e-02  -2.2173e-02
-1.0000e+00   2.2143e-01   8.5255e-02  -2.4224e-02
-5.0000e-01   2.7857e-01   8.5745e-02  -2.6276e-02
 0.0000e+00   3.3571e-01   8.6235e-02  -2.8327e-02
 5.0000e-01   3.9286e-01   8.6724e-02  -3.0378e-02
 1.0000e+00   4.5000e-01   8.7214e-02  -3.2429e-02
 1.5000e+00   5.0714e-01   8.7704e-02  -3.4480e-02
 2.0000e+00   5.7000e-01   8.7792e-02  -3.6685e-02
 2.5000e+00   6.3667e-01   8.7613e-02  -3.8992e-02
 3.0000e+00   7.0333e-01   8.7433e-02  -4.1300e-02
 3.5000e+00   7.7000e-01   8.7254e-02  -4.3608e-02
 4.0000e+00   8.3667e-01   8.7074e-02  -4.5915e-02
 4.5000e+00   9.0333e-01   8.6895e-02  -4.8223e-02
 5.0000e+00   9.7000e-01   8.6715e-02  -5.0531e-02
 5.5000e+00   1.0367e+00   8.6536e-02  -5.2838e-02
 6.0000e+00   1.0977e+00   8.6371e-02  -5.5506e-02
 6.5000e+00   1.1574e+00   8.6210e-02  -5.8265e-02
 7.0000e+00   1.2171e+00   8.6048e-02  -6.1023e-02
 7.5000e+00   1.2768e+00   8.5887e-02  -6.3781e-02
 8.0000e+00   1.3365e+00   8.5726e-02  -6.6539e-02
 8.5000e+00   1.3961e+00   8.5565e-02  -6.9297e-02
 9.0000e+00   1.4444e+00   8.6250e-02  -7.2500e-02
 9.5000e+00   1.4850e+00   8.7500e-02  -7.6000e-02
 1.0000e+01   1.5256e+00   8.8750e-02  -7.9500e-02
 1.0500e+01   1.2400e+00   1.0540e-01  -8.3000e-02
 1.1000e+01   1.0733e+00   1.2560e-01  -4.3850e-02
 1.1500e+01   1.0450e+00   1.4100e-01  -3.7367e-02
 1.2000e+01   1.0280e+00   1.5542e-01  -3.9080e-02
 1.2500e+01   1.0171e+00   1.6922e-01  -4.0780e-02
 1.3000e+01   1.0097e+00   1.8250e-01  -4.2475e-02
 1.3500e+01   1.0075e+00   1.9500e-01  -4.4163e-02
 1.4000e+01   1.0072e+00   2.0640e-01  -4.5820e-02
 1.5000e+01   1.0083e+00   2.2748e-01  -4.9277e-02
 1.6000e+01   1.0118e+00   2.4586e-01  -5.2662e-02
 1.7000e+01   9.9385e-01   2.5889e-01  -6.2508e-02
 1.8000e+01   9.7356e-01   2.7133e-01  -7.3072e-02
 1.9000e+01   9.5328e-01   2.8376e-01  -8.3636e-02
 2.0000e+01   9.3300e-01   2.9620e-01  -9.4200e-02
 2.2000e+01   9.1836e-01   3.2824e-01  -1.0636e-01
 2.4000e+01   9.0372e-01   3.6028e-01  -1.1852e-01
 2.6000e+01   8.8908e-01   3.9232e-01  -1.3068e-01
 2.8000e+01   8.7444e-01   4.2436e-01  -1.4284e-01
 3.0000e+01   8.5980e-01   4.5640e-01  -1.5500e-01
 3.2000e+01   8.5154e-01   4.9540e-01  -1.6410e-01
 3.4000e+01   8.4328e-01   5.3440e-01  -1.7320e-01
 3.6000e+01   8.3502e-01   5.7340e-01  -1.8230e-01
 3.8000e+01   8.2676e-01   6.1240e-01  -1.9140e-01
 4.0000e+01   8.1850e-01   6.5140e-01  -2.0050e-01
 4.5000e+01   7.8100e-01   7.5390e-01  -2.2065e-01
 5.0000e+01   7.4350e-01   8.5640e-01  -2.4080e-01
 5.5000e+01   6.8000e-01   9.5060e-01  -2.5845e-01
 6.0000e+01   6.1650e-01   1.0448e+00  -2.7610e-01
 6.5000e+01   5.2805e-01   1.1184e+00  -2.9065e-01
 7.0000e+01   4.3960e-01   1.1920e+00  -3.0520e-01
 7.5000e+01   3.3320e-01   1.2349e+00  -3.1590e-01
 8.0000e+01   2.2680e-01   1.2779e+00  -3.2660e-01
 8.5000e+01   1.1340e-01   1.2839e+00  -3.3270e-01
 9.0000e+01   0.0000e+00   1.2900e+00  -3.3880e-01
 9.5000e+01  -7.9350e-02   1.2839e+00  -3.4530e-01
 1.0000e+02  -1.5870e-01   1.2779e+00  -3.5180e-01
 1.0500e+02  -2.3320e-01   1.2349e+00  -3.5100e-01
 1.1000e+02  -3.0770e-01   1.1920e+00  -3.5020e-01
 1.1500e+02  -3.6965e-01   1.1184e+00  -3.4335e-01
 1.2000e+02  -4.3160e-01   1.0448e+00  -3.3650e-01
 1.2500e+02  -4.7605e-01   9.5060e-01  -3.2595e-01
 1.3000e+02  -5.2050e-01   8.5640e-01  -3.1540e-01
 1.3500e+02  -5.4675e-01   7.5390e-01  -3.0470e-01
 1.4000e+02  -5.7300e-01   6.5140e-01  -2.9400e-01
 1.4500e+02  -5.8740e-01   5.5390e-01  -2.8905e-01
 1.5000e+02  -6.0180e-01   4.5640e-01  -2.8410e-01
 1.5500e+02  -6.2745e-01   3.7630e-01  -3.0045e-01
 1.6000e+02  -6.5310e-01   2.9620e-01  -3.1680e-01
 1.6500e+02  -5.4655e-01   2.4365e-01  -4.0840e-01
 1.7000e+02  -4.4000e-01   1.9110e-01  -5.0000e-01
 1.7500e+02  -2.2000e-01   1.7285e-01  -2.5000e-01
 1.8000e+02   0.0000e+00   1.5460e-01   0.0000e+00
EOT
